# Incident energy   MT=1 : (n,total)   MT=2 : (z,elastic)   MT=102 : (z,γ)
0.001   69.36757   2.579297   66.78828
0.00101   69.04409319999999   2.5748746   66.469224
0.00102   68.7206164   2.5704522   66.150168
0.00103   68.3971396   2.5660298   65.83111199999999
0.0010400000000000001   68.07366279999998   2.5616074   65.512056
0.00105   67.750186   2.557185   65.193
0.00106   67.4267092   2.5527626000000003   64.873944
0.00107   67.1238136   2.5486931200000003   64.5751176
0.00108   66.82777839999999   2.5447412799999998   64.28303439999999
0.00109   66.5317432   2.54078944   63.99095119999999
0.0011   66.23570799999999   2.5368376   63.69886799999999
0.00111   65.9396728   2.53288576   63.406784800000004
0.0011200000000000001   65.6436376   2.52893392   63.1147016
0.0011300000000000001   65.3594896   2.52518216   62.834305599999986
0.0011400000000000002   65.08722879999999   2.5216304800000002   62.565596799999994
0.00115   64.814968   2.5180787999999996   62.296887999999996
0.00116   64.5427072   2.51452712   62.028179200000004
0.00117   64.2704464   2.51097544   61.7594704
0.00118   63.998185600000006   2.5074237600000004   61.4907616
0.00119   63.731114399999996   2.50395784   61.227156400000005
0.0012   63.479612   2.5007492   60.97886200000001
0.00121   63.228109599999996   2.49754056   60.73056759999999
0.00122   62.976607200000004   2.49433192   60.4822732
0.00123   62.7251048   2.49112328   60.233978799999996
0.00124   62.473602400000004   2.48791464   59.9856844
0.00125   62.2221   2.484706   59.73739
0.00126   61.996919999999996   2.4819224   59.514993999999994
0.00127   61.771739999999994   2.4791388   59.292598
0.00128   61.54656   2.4763552   59.070201999999995
0.0012900000000000001   61.32138   2.4735716   58.84780599999999
0.0013000000000000002   61.096199999999996   2.470788   58.625409999999995
0.0013100000000000002   60.871019999999994   2.4680044000000003   58.403014
0.00132   60.64584   2.4652208000000004   58.180617999999996
0.00133   60.42066   2.4624372   57.958222
0.00134   60.195479999999996   2.4596536   57.735825999999996
0.00135   59.9703   2.4568700000000003   57.51343
0.00136   59.74512   2.4540864   57.291033999999996
0.0013700000000000001   59.51994   2.4513028000000006   57.06863799999999
0.0013800000000000002   59.30919399999999   2.4487457200000002   56.86044919999999
0.0013900000000000002   59.11288199999999   2.4464151600000004   56.66646759999999
0.0014000000000000002   58.91656999999999   2.4440846   56.472485999999996
0.0014100000000000002   58.720257999999994   2.44175404   56.278504399999996
0.0014200000000000003   58.52394599999999   2.43942348   56.084522799999995
0.0014300000000000003   58.327633999999996   2.4370929200000004   55.890541199999994
0.00144   58.131322   2.43476236   55.69655959999999
0.00145   57.93501   2.4324318   55.502578
0.00146   57.738698   2.43010124   55.3085964
0.00147   57.54238599999999   2.4277706800000005   55.11461480000001
0.00148   57.346073999999994   2.42544012   54.920633200000005
0.00149   57.149761999999996   2.42310956   54.726651600000004
0.0015   56.95345   2.420779   54.53267
0.00151   56.780325999999995   2.4188002   54.3615252
0.00152   56.607201999999994   2.4168214   54.1903804
0.0015300000000000001   56.43407799999999   2.4148426   54.019235599999995
0.00154   56.260954   2.4128638000000002   53.8480908
0.00155   56.08783   2.410885   53.67694600000001
0.00156   55.914706   2.4089062   53.5058012
0.00157   55.741581999999994   2.4069274000000003   53.3346564
0.00158   55.56845799999999   2.4049486   53.1635116
0.00159   55.395334   2.4029697999999997   52.9923668
0.0016   55.22221   2.400991   52.821222
0.00161   55.049086   2.3990121999999996   52.650077200000005
0.0016200000000000001   54.875962   2.3970333999999998   52.4789324
0.0016300000000000002   54.712318399999994   2.39519384   52.3171284
0.0016400000000000002   54.5581552   2.39349352   52.164665199999995
0.0016500000000000002   54.40399199999999   2.3917932   52.012201999999995
0.00166   54.2498288   2.39009288   51.8597388
0.00167   54.095665600000004   2.38839256   51.7072756
0.00168   53.941502400000005   2.3866922399999995   51.5548124
0.00169   53.7873392   2.3849919199999996   51.402349199999996
0.0017000000000000001   53.633176   2.3832915999999997   51.249886
0.0017100000000000001   53.4790128   2.38159128   51.0974228
0.0017200000000000002   53.3248496   2.37989096   50.944959600000004
0.0017300000000000002   53.170686399999994   2.3781906399999997   50.7924964
0.0017400000000000002   53.0165232   2.37649032   50.64003319999999
0.0017500000000000003   52.86236   2.3747899999999995   50.48757
0.0017599999999999998   52.72393280000001   2.37331368   50.3506196
0.0017699999999999999   52.585505600000005   2.3718373600000002   50.213669200000005
0.00178   52.4470784   2.37036104   50.076718799999995
0.00179   52.3086512   2.36888472   49.93976839999999
0.0018   52.170224000000005   2.3674084   49.802818
0.00181   52.0317968   2.3659320800000003   49.6658676
0.00182   51.8933696   2.36445576   49.528917199999995
0.00183   51.754942400000004   2.36297944   49.39196679999999
0.00184   51.616515199999995   2.36150312   49.25501639999999
0.00185   51.478088   2.3600268   49.11806599999999
0.00186   51.3396608   2.3585504800000003   48.981115599999995
0.0018700000000000001   51.201233599999995   2.3570741600000003   48.8441652
0.00188   51.06942239999999   2.3556892400000002   48.713738799999994
0.00189   50.94422719999999   2.3543957200000003   48.589836399999996
0.0019   50.819032   2.3531022000000004   48.465934
0.00191   50.6938368   2.3518086800000004   48.34203159999999
0.00192   50.5686416   2.35051516   48.2181292
0.00193   50.44344639999999   2.34922164   48.0942268
0.00194   50.31825119999999   2.34792812   47.9703244
0.0019500000000000001   50.193056   2.3466346000000002   47.846422
0.00196   50.0678608   2.3453410800000003   47.7225196
0.00197   49.9426656   2.3440475600000004   47.5986172
0.00198   49.8174704   2.3427540400000004   47.4747148
0.00199   49.6922752   2.34146052   47.350812399999995
0.002   49.56708   2.340167   47.22691
0.00201   49.45560906666667   2.3390569733333337   47.11654946666667
0.00202   49.34413813333333   2.337946946666667   47.00618893333333
0.00203   49.2326672   2.33683692   46.89582839999999
0.00204   49.12119626666666   2.3357268933333333   46.785467866666664
0.00205   49.00972533333333   2.334616866666667   46.67510733333333
0.00206   48.8982544   2.33350684   46.564746799999995
0.0020700000000000002   48.78678346666666   2.3323968133333333   46.45438626666666
0.0020800000000000003   48.675312533333326   2.331286786666667   46.344025733333325
0.00209   48.5638416   2.33017676   46.233665200000004
0.0021   48.45237066666667   2.3290667333333337   46.12330466666667
0.00211   48.34089973333334   2.327956706666667   46.012944133333335
0.00212   48.22942880000001   2.32684668   45.9025836
0.00213   48.117957866666664   2.3257366533333332   45.79222306666667
0.00214   48.00648693333333   2.324626626666667   45.68186253333334
0.00215   47.895016   2.3235166   45.571502
0.00216   47.78354506666667   2.3224065733333337   45.46114146666667
0.00217   47.67207413333333   2.321296546666667   45.35078093333333
0.00218   47.56060319999999   2.32018652   45.2404204
0.00219   47.45251133333333   2.3191200933333334   45.13339519999999
0.0022   47.35455666666666   2.3181844666666667   45.036376
0.00221   47.256602   2.3172488400000004   44.9393568
0.00222   47.158647333333334   2.3163132133333333   44.84233759999999
0.00223   47.06069266666667   2.315377586666667   44.7453184
0.0022400000000000002   46.962737999999995   2.31444196   44.6482992
0.0022500000000000003   46.86478333333333   2.313506333333333   44.55128
0.0022600000000000003   46.76682866666666   2.3125707066666665   44.45426079999999
0.0022700000000000003   46.668874   2.31163508   44.357241599999995
0.0022800000000000003   46.57091933333332   2.310699453333333   44.2602224
0.00229   46.47296466666666   2.3097638266666665   44.1632032
0.0023   46.375009999999996   2.3088281999999998   44.066184
0.00231   46.27705533333333   2.307892573333333   43.9691648
0.00232   46.17910066666667   2.3069569466666664   43.872145599999996
0.00233   46.081146   2.3060213199999997   43.7751264
0.00234   45.98319133333333   2.3050856933333335   43.6781072
0.00235   45.885236666666664   2.3041500666666663   43.581087999999994
0.00236   45.787282000000005   2.30321444   43.4840688
0.00237   45.68932733333334   2.3022788133333334   43.387049600000005
0.00238   45.596867333333336   2.3014113999999997   43.29545706666667
0.00239   45.509902   2.3006121999999998   43.209291199999996
0.0024   45.42293666666666   2.299813   43.123125333333334
0.00241   45.33597133333333   2.2990138   43.03695946666667
0.00242   45.249005999999994   2.2982145999999997   42.9507936
0.00243   45.16204066666666   2.2974153999999998   42.864627733333336
0.00244   45.07507533333333   2.2966162   42.778461866666674
0.00245   44.98810999999999   2.2958169999999996   42.692296
0.00246   44.90114466666667   2.2950177999999997   42.60613013333332
0.00247   44.81417933333333   2.2942185999999998   42.51996426666667
0.00248   44.727214   2.2934194   42.4337984
0.00249   44.640248666666665   2.2926202   42.34763253333334
0.0025   44.55328333333333   2.291821   42.261466666666664
0.00251   44.466317999999994   2.2910218   42.1753008
0.00252   44.37935266666666   2.2902226   42.089134933333334
0.00253   44.29238733333333   2.2894234   42.002969066666665
0.00254   44.205422   2.2886242   41.9168032
0.00255   44.11845666666667   2.2878249999999998   41.83063733333333
0.00256   44.03149133333333   2.2870258   41.74447146666667
0.0025700000000000002   43.951335199999995   2.28630816   41.6650328
0.0025800000000000003   43.8734488   2.2856177066666667   41.58783653333333
0.0025900000000000003   43.795562399999994   2.284927253333333   41.51064026666666
0.0026000000000000003   43.717676   2.2842368   41.433444
0.0026100000000000003   43.63978959999999   2.283546346666667   41.356247733333326
0.0026200000000000004   43.561903199999996   2.282855893333333   41.279051466666665
0.00263   43.484016800000006   2.28216544   41.2018552
0.00264   43.4061304   2.281474986666667   41.124658933333336
0.00265   43.32824399999999   2.280784533333333   41.04746266666667
0.00266   43.2503576   2.28009408   40.9702664
0.00267   43.1724712   2.279403626666667   40.89307013333333
0.00268   43.0945848   2.2787131733333337   40.81587386666667
0.00269   43.0166984   2.2780227200000005   40.738677599999995
0.0027   42.938812   2.277332266666667   40.66148133333333
0.00271   42.860925599999995   2.2766418133333337   40.584285066666666
0.00272   42.7830392   2.27595136   40.5070888
0.0027300000000000002   42.70515279999999   2.2752609066666665   40.42989253333333
0.0027400000000000002   42.627266399999996   2.2745704533333333   40.35269626666667
0.0027500000000000003   42.54938   2.27388   40.2755
0.0027600000000000003   42.47909573333333   2.273277546666667   40.2058184
0.0027700000000000003   42.408811466666656   2.2726750933333335   40.1361368
0.0027800000000000004   42.338527199999994   2.27207264   40.0664552
0.0027900000000000004   42.268242933333326   2.271470186666667   39.9967736
0.0028000000000000004   42.197958666666665   2.270867733333333   39.927092
0.0028100000000000004   42.1276744   2.2702652800000003   39.8574104
0.0028200000000000005   42.05739013333333   2.269662826666667   39.7877288
0.0028300000000000005   41.98710586666666   2.269060373333333   39.718047199999994
0.0028400000000000005   41.9168216   2.26845792   39.6483656
0.0028500000000000005   41.84653733333332   2.2678554666666666   39.578683999999996
0.0028600000000000006   41.776253066666655   2.2672530133333333   39.50900239999999
0.0028700000000000006   41.705968799999994   2.26665056   39.4393208
0.00288   41.635684533333325   2.2660481066666667   39.369639199999995
0.0028899999999999998   41.565400266666664   2.2654456533333334   39.2999576
0.0029   41.495115999999996   2.2648432   39.230276
0.00291   41.424831733333335   2.2642407466666667   39.1605944
0.00292   41.354547466666666   2.263638293333333   39.0909128
0.00293   41.2842632   2.2630358399999997   39.0212312
0.00294   41.215589333333334   2.26245144   38.95314173333333
0.00295   41.15174666666667   2.2619211999999997   38.889828666666666
0.00296   41.087904   2.26139096   38.8265156
0.00297   41.024061333333336   2.26086072   38.76320253333333
0.00298   40.96021866666667   2.26033048   38.69988946666667
0.00299   40.896376   2.25980024   38.6365764
0.003   40.83253333333333   2.25927   38.57326333333333
0.0030000000000000005   40.83253333333333   2.25927   38.57326333333333
0.00301   40.76869066666667   2.25873976   38.509950266666664
0.00302   40.704848   2.25820952   38.4466372
0.00303   40.64100533333333   2.2576792799999996   38.38332413333333
0.00304   40.577162666666666   2.25714904   38.32001106666666
0.00305   40.51332   2.2566188   38.256698
0.0030600000000000002   40.449477333333334   2.25608856   38.193384933333334
0.00307   40.38563466666667   2.25555832   38.13007186666666
0.00308   40.32179200000001   2.2550280799999998   38.0667588
0.00309   40.257949333333336   2.25449784   38.003445733333336
0.0031   40.19410666666666   2.2539675999999997   37.94013266666666
0.00311   40.130264000000004   2.25343736   37.876819600000005
0.00312   40.06642133333334   2.25290712   37.81350653333334
0.00313   40.00533573333333   2.25240688   37.752920933333336
0.00314   39.9470072   2.25193664   37.6950628
0.00315   39.88867866666667   2.2514664   37.63720466666666
0.00316   39.83035013333334   2.2509961599999997   37.579346533333336
0.00317   39.7720216   2.25052592   37.5214884
0.00318   39.713693066666664   2.25005568   37.46363026666667
0.00319   39.655364533333334   2.2495854399999997   37.40577213333333
0.0032   39.597035999999996   2.2491152000000003   37.347913999999996
0.00321   39.538707466666665   2.24864496   37.29005586666666
0.00322   39.480378933333334   2.24817472   37.23219773333333
0.0032300000000000002   39.4220504   2.24770448   37.1743396
0.0032400000000000003   39.363721866666666   2.24723424   37.11648146666666
0.0032500000000000003   39.305393333333335   2.246764   37.05862333333333
0.0032600000000000003   39.2470648   2.24629376   37.0007652
0.0032700000000000003   39.188736266666666   2.24582352   36.94290706666666
0.0032800000000000004   39.130407733333335   2.2453532800000002   36.88504893333333
0.0032900000000000004   39.0720792   2.2448830400000004   36.8271908
0.0033000000000000004   39.01375066666667   2.2444128   36.769332666666664
0.0033100000000000004   38.95542213333333   2.2439425600000003   36.71147453333332
0.00332   38.9006664   2.24351008   36.6571516
0.00333   38.8471016   2.2430901866666666   36.60400706666667
0.00334   38.7935368   2.2426702933333336   36.55086253333334
0.00335   38.739972   2.2422504   36.497718
0.00336   38.686407200000005   2.241830506666667   36.44457346666666
0.00337   38.6328424   2.241410613333333   36.39142893333333
0.00338   38.579277600000005   2.2409907200000005   36.3382844
0.0033900000000000002   38.5257128   2.2405708266666666   36.28513986666666
0.0034000000000000002   38.472148   2.2401509333333336   36.23199533333333
0.0034100000000000003   38.4185832   2.23973104   36.1788508
0.0034200000000000003   38.3650184   2.239311146666667   36.12570626666666
0.0034300000000000003   38.3114536   2.2388912533333336   36.07256173333333
0.0034400000000000003   38.257888799999996   2.23847136   36.0194172
0.0034500000000000004   38.204324   2.238051466666667   35.96627266666666
0.0034600000000000004   38.150759199999996   2.2376315733333336   35.91312813333333
0.0034700000000000004   38.0971944   2.2372116800000006   35.8599836
0.0034800000000000005   38.0436296   2.2367917866666667   35.80683906666667
0.0034900000000000005   37.990064800000006   2.236371893333333   35.75369453333333
0.0035000000000000005   37.9365   2.235952   35.70054999999999
0.0035100000000000005   37.8889048   2.235593066666667   35.65331346666667
0.0035199999999999997   37.84130960000001   2.2352341333333334   35.606076933333334
0.0035299999999999997   37.793714400000006   2.2348752000000003   35.5588404
0.0035399999999999997   37.7461192   2.2345162666666667   35.51160386666667
0.0035499999999999998   37.698524000000006   2.2341573333333336   35.464367333333335
0.00356   37.6509288   2.2337984000000004   35.4171308
0.00357   37.6033336   2.233439466666667   35.36989426666667
0.00358   37.5557384   2.2330805333333332   35.32265773333333
0.00359   37.5081432   2.2327216   35.2754212
0.0036   37.460548   2.232362666666667   35.228184666666664
0.00361   37.4129528   2.2320037333333334   35.18094813333333
0.00362   37.3653576   2.2316448   35.133711600000005
0.00363   37.3177624   2.2312858666666666   35.08647506666667
0.00364   37.2701672   2.230926933333333   35.03923853333333
0.00365   37.222572   2.230568   34.992002
0.00366   37.1749768   2.2302090666666667   34.94476546666667
0.00367   37.1273816   2.229850133333333   34.897528933333334
0.00368   37.0797864   2.2294912   34.8502924
0.00369   37.0321912   2.229132266666667   34.80305586666667
0.0037   36.984596   2.2287733333333333   34.755819333333335
0.00371   36.9370008   2.2284143999999997   34.7085828
0.00372   36.889405599999996   2.2280554666666665   34.66134626666667
0.0037300000000000002   36.8418104   2.2276965333333334   34.614109733333336
0.0037400000000000003   36.7942152   2.2273376   34.5668732
0.00375   36.74662   2.2269786666666667   34.51963666666667
0.00376   36.6990248   2.2266197333333335   34.47240013333334
0.00377   36.6514296   2.2262608000000004   34.425163600000005
0.00378   36.6038344   2.2259018666666663   34.377927066666665
0.00379   36.5562392   2.225542933333333   34.33069053333334
0.0038   36.508644   2.225184   34.283454
0.00381   36.4610488   2.2248250666666665   34.236217466666666
0.00382   36.4134536   2.224466133333333   34.18898093333333
0.00383   36.3658584   2.2241071999999997   34.1417444
0.00384   36.3182632   2.2237482666666666   34.09450786666667
0.00385   36.270668   2.2233893333333334   34.047271333333335
0.00386   36.2230728   2.2230304   34.0000348
0.00387   36.1754776   2.2226714666666663   33.95279826666667
0.00388   36.131113066666664   2.222344213333333   33.90876093333333
0.0038900000000000002   36.089979199999995   2.2220486399999997   33.867922799999995
0.0039000000000000003   36.04884533333333   2.2217530666666665   33.827084666666664
0.00391   36.00771146666666   2.221457493333333   33.78624653333333
0.00392   35.9665776   2.22116192   33.7454084
0.00393   35.92544373333333   2.2208663466666665   33.704570266666664
0.00394   35.88430986666667   2.2205707733333333   33.66373213333334
0.00395   35.843176   2.2202751999999997   33.622894
0.00396   35.80204213333333   2.2199796266666665   33.58205586666667
0.0039700000000000004   35.76090826666667   2.219684053333333   33.54121773333333
0.00398   35.7197744   2.21938848   33.5003796
0.0039900000000000005   35.67864053333333   2.219092906666667   33.459541466666664
0.004   35.63750666666667   2.2187973333333333   33.41870333333333
0.0040100000000000005   35.5963728   2.21850176   33.3778652
0.00402   35.55523893333333   2.2182061866666665   33.33702706666667
0.004030000000000001   35.514105066666666   2.2179106133333337   33.29618893333333
0.00404   35.4729712   2.21761504   33.2553508
0.004050000000000001   35.431837333333334   2.2173194666666665   33.214512666666664
0.00406   35.39070346666667   2.2170238933333333   33.17367453333333
0.004070000000000001   35.349569599999995   2.21672832   33.1328364
0.00408   35.30843573333333   2.2164327466666665   33.09199826666667
0.004090000000000001   35.267301866666664   2.2161371733333337   33.05116013333333
0.0041   35.226168   2.2158416   33.010322
0.004110000000000001   35.18503413333334   2.2155460266666664   32.969483866666664
